Tabulated Kremer-Grest potential
Columns are R, F(r)/r and U(r)
Header reads: N_pts, r_min and r_max (r_max is also r_cutoff)
# 10000 0.500000 1.499900
0.500000 -779237.136177 16132.975177
0.500100 -778066.308632 16094.013321
0.500200 -775883.982635 16055.152985
0.500300 -773708.202923 16016.393887
0.500400 -771538.948571 15977.735742
0.500500 -769376.198726 15939.178269
0.500600 -767219.932602 15900.721185
0.500700 -765070.129487 15862.364209
0.500800 -762926.768739 15824.107062
0.500900 -760789.829785 15785.949464
0.501000 -758659.292122 15747.891137
0.501100 -756535.135316 15709.931803
0.501200 -754417.339003 15672.071186
0.501300 -752305.882888 15634.309009
0.501400 -750200.746745 15596.644998
0.501500 -748101.910416 15559.078878
0.501600 -746009.353811 15521.610376
0.501700 -743923.056909 15484.239220
0.501800 -741842.999755 15446.965137
0.501900 -739769.162464 15409.787856
0.502000 -737701.525216 15372.707108
0.502100 -735640.068260 15335.722623
0.502200 -733584.771910 15298.834133
0.502300 -731535.616549 15262.041369
0.502400 -729492.582623 15225.344065
0.502500 -727455.650646 15188.741954
0.502600 -725424.801200 15152.234772
0.502700 -723400.014928 15115.822253
0.502800 -721381.272542 15079.504134
0.502900 -719368.554817 15043.280152
0.503000 -717361.842595 15007.150045
0.503100 -715361.116781 14971.113551
0.503200 -713366.358346 14935.170409
0.503300 -711377.548322 14899.320361
0.503400 -709394.667810 14863.563145
0.503500 -707417.697970 14827.898505
0.503600 -705446.620029 14792.326183
0.503700 -703481.415275 14756.845922
0.503800 -701522.065061 14721.457465
0.503900 -699568.550801 14686.160559
0.504000 -697620.853973 14650.954947
0.504100 -695678.956116 14615.840377
0.504200 -693742.838834 14580.816595
0.504300 -691812.483790 14545.883349
0.504400 -689887.872710 14511.040387
0.504500 -687968.987381 14476.287460
0.504600 -686055.809652 14441.624317
0.504700 -684148.321434 14407.050708
0.504800 -682246.504696 14372.566385
0.504900 -680350.341471 14338.171101
0.505000 -678459.813850 14303.864608
0.505100 -676574.903985 14269.646659
0.505200 -674695.594088 14235.517011
0.505300 -672821.866432 14201.475417
0.505400 -670953.703347 14167.521633
0.505500 -669091.087225 14133.655416
0.505600 -667234.000515 14099.876524
0.505700 -665382.425727 14066.184714
0.505800 -663536.345428 14032.579745
0.505900 -661695.742245 13999.061377
0.506000 -659860.598863 13965.629370
0.506100 -658030.898023 13932.283485
0.506200 -656206.622527 13899.023483
0.506300 -654387.755234 13865.849126
0.506400 -652574.279058 13832.760179
0.506500 -650766.176973 13799.756403
0.506600 -648963.432010 13766.837565
0.506700 -647166.027256 13734.003428
0.506800 -645373.945855 13701.253760
0.506900 -643587.171006 13668.588325
0.507000 -641805.685967 13636.006892
0.507100 -640029.474050 13603.509229
0.507200 -638258.518625 13571.095103
0.507300 -636492.803115 13538.764285
0.507400 -634732.311000 13506.516543
0.507500 -632977.025816 13474.351650
0.507600 -631226.931153 13442.269375
0.507700 -629482.010655 13410.269492
0.507800 -627742.248023 13378.351772
0.507900 -626007.627012 13346.515989
0.508000 -624278.131430 13314.761917
0.508100 -622553.745140 13283.089331
0.508200 -620834.452058 13251.498005
0.508300 -619120.236156 13219.987717
0.508400 -617411.081458 13188.558242
0.508500 -615706.972040 13157.209358
0.508600 -614007.892035 13125.940843
0.508700 -612313.825625 13094.752476
0.508800 -610624.757047 13063.644035
0.508900 -608940.670590 13032.615300
0.509000 -607261.550597 13001.666053
0.509100 -605587.381460 12970.796074
0.509200 -603918.147625 12940.005146
0.509300 -602253.833592 12909.293050
0.509400 -600594.423908 12878.659570
0.509500 -598939.903175 12848.104490
0.509600 -597290.256046 12817.627594
0.509700 -595645.467224 12787.228667
0.509800 -594005.521463 12756.907495
0.509900 -592370.403569 12726.663864
0.510000 -590740.098398 12696.497562
0.510100 -589114.590856 12666.408374
0.510200 -587493.865900 12636.396091
0.510300 -585877.908536 12606.460500
0.510400 -584266.703822 12576.601392
0.510500 -582660.236862 12546.818555
0.510600 -581058.492814 12517.111782
0.510700 -579461.456883 12487.480862
0.510800 -577869.114323 12457.925588
0.510900 -576281.450438 12428.445753
0.511000 -574698.450580 12399.041150
0.511100 -573120.100150 12369.711572
0.511200 -571546.384598 12340.456813
0.511300 -569977.289421 12311.276669
0.511400 -568412.800167 12282.170935
0.511500 -566852.902428 12253.139408
0.511600 -565297.581848 12224.181884
0.511700 -563746.824116 12195.298159
0.511800 -562200.614968 12166.488034
0.511900 -560658.940190 12137.751305
0.512000 -559121.785613 12109.087771
0.512100 -557589.137116 12080.497234
0.512200 -556060.980624 12051.979492
0.512300 -554537.302109 12023.534347
0.512400 -553018.087591 11995.161600
0.512500 -551503.323134 11966.861053
0.512600 -549992.994850 11938.632509
0.512700 -548487.088896 11910.475771
0.512800 -546985.591474 11882.390643
0.512900 -545488.488835 11854.376929
0.513000 -543995.767272 11826.434434
0.513100 -542507.413125 11798.562963
0.513200 -541023.412779 11770.762323
0.513300 -539543.752663 11743.032320
0.513400 -538068.419254 11715.372762
0.513500 -536597.399071 11687.783455
0.513600 -535130.678678 11660.264209
0.513700 -533668.244684 11632.814832
0.513800 -532210.083742 11605.435133
0.513900 -530756.182548 11578.124923
0.514000 -529306.527845 11550.884013
0.514100 -527861.106417 11523.712212
0.514200 -526419.905093 11496.609334
0.514300 -524982.910745 11469.575189
0.514400 -523550.110288 11442.609592
0.514500 -522121.490681 11415.712354
0.514600 -520697.038926 11388.883290
0.514700 -519276.742068 11362.122215
0.514800 -517860.587193 11335.428942
0.514900 -516448.561433 11308.803289
0.515000 -515040.651959 11282.245070
0.515100 -513636.845986 11255.754102
0.515200 -512237.130772 11229.330202
0.515300 -510841.493615 11202.973188
0.515400 -509449.921856 11176.682877
0.515500 -508062.402877 11150.459090
0.515600 -506678.924104 11124.301644
0.515700 -505299.473001 11098.210359
0.515800 -503924.037075 11072.185056
0.515900 -502552.603875 11046.225555
0.516000 -501185.160989 11020.331678
0.516100 -499821.696047 10994.503247
0.516200 -498462.196720 10968.740083
0.516300 -497106.650719 10943.042010
0.516400 -495755.045796 10917.408850
0.516500 -494407.369742 10891.840428
0.516600 -493063.610390 10866.336569
0.516700 -491723.755612 10840.897096
0.516800 -490387.793319 10815.521836
0.516900 -489055.711463 10790.210614
0.517000 -487727.498036 10764.963256
0.517100 -486403.141069 10739.779591
0.517200 -485082.628630 10714.659444
0.517300 -483765.948831 10689.602643
0.517400 -482453.089818 10664.609019
0.517500 -481144.039779 10639.678398
0.517600 -479838.786940 10614.810610
0.517700 -478537.319566 10590.005487
0.517800 -477239.625959 10565.262856
0.517900 -475945.694462 10540.582551
0.518000 -474655.513454 10515.964401
0.518100 -473369.071353 10491.408240
0.518200 -472086.356614 10466.913898
0.518300 -470807.357731 10442.481210
0.518400 -469532.063237 10418.110007
0.518500 -468260.461699 10393.800125
0.518600 -466992.541724 10369.551398
0.518700 -465728.291955 10345.363659
0.518800 -464467.701075 10321.236745
0.518900 -463210.757801 10297.170490
0.519000 -461957.450887 10273.164732
0.519100 -460707.769125 10249.219307
0.519200 -459461.701345 10225.334052
0.519300 -458219.236410 10201.508804
0.519400 -456980.363222 10177.743402
0.519500 -455745.070720 10154.037684
0.519600 -454513.347876 10130.391489
0.519700 -453285.183700 10106.804657
0.519800 -452060.567240 10083.277027
0.519900 -450839.487575 10059.808440
0.520000 -449621.933825 10036.398737
0.520100 -448407.895140 10013.047759
0.520200 -447197.360710 9989.755348
0.520300 -445990.319759 9966.521345
0.520400 -444786.761545 9943.345595
0.520500 -443586.675361 9920.227939
0.520600 -442390.050537 9897.168222
0.520700 -441196.876437 9874.166287
0.520800 -440007.142459 9851.221979
0.520900 -438820.838035 9828.335143
0.521000 -437637.952634 9805.505624
0.521100 -436458.475756 9782.733269
0.521200 -435282.396938 9760.017922
0.521300 -434109.705750 9737.359432
0.521400 -432940.391795 9714.757644
0.521500 -431774.444713 9692.212408
0.521600 -430611.854173 9669.723570
0.521700 -429452.609883 9647.290979
0.521800 -428296.701580 9624.914484
0.521900 -427144.119037 9602.593935
0.522000 -425994.852059 9580.329181
0.522100 -424848.890485 9558.120073
0.522200 -423706.224188 9535.966460
0.522300 -422566.843070 9513.868194
0.522400 -421430.737071 9491.825128
0.522500 -420297.896161 9469.837111
0.522600 -419168.310341 9447.903997
0.522700 -418041.969649 9426.025639
0.522800 -416918.864151 9404.201890
0.522900 -415798.983947 9382.432603
0.523000 -414682.319171 9360.717632
0.523100 -413568.859985 9339.056832
0.523200 -412458.596586 9317.450058
0.523300 -411351.519204 9295.897165
0.523400 -410247.618096 9274.398008
0.523500 -409146.883554 9252.952444
0.523600 -408049.305903 9231.560329
0.523700 -406954.875494 9210.221521
0.523800 -405863.582716 9188.935876
0.523900 -404775.417983 9167.703252
0.524000 -403690.371744 9146.523507
0.524100 -402608.434478 9125.396501
0.524200 -401529.596695 9104.322091
0.524300 -400453.848934 9083.300138
0.524400 -399381.181768 9062.330501
0.524500 -398311.585797 9041.413040
0.524600 -397245.051654 9020.547615
0.524700 -396181.570001 8999.734089
0.524800 -395121.131530 8978.972321
0.524900 -394063.726966 8958.262175
0.525000 -393009.347059 8937.603511
0.525100 -391957.982594 8916.996193
0.525200 -390909.624383 8896.440084
0.525300 -389864.263267 8875.935046
0.525400 -388821.890120 8855.480944
0.525500 -387782.495842 8835.077642
0.525600 -386746.071363 8814.725004
0.525700 -385712.607645 8794.422895
0.525800 -384682.095677 8774.171181
0.525900 -383654.526477 8753.969726
0.526000 -382629.891092 8733.818397
0.526100 -381608.180600 8713.717061
0.526200 -380589.386104 8693.665585
0.526300 -379573.498740 8673.663834
0.526400 -378560.509669 8653.711678
0.526500 -377550.410083 8633.808984
0.526600 -376543.191202 8613.955620
0.526700 -375538.844272 8594.151455
0.526800 -374537.360571 8574.396358
0.526900 -373538.731402 8554.690199
0.527000 -372542.948098 8535.032847
0.527100 -371550.002018 8515.424172
0.527200 -370559.884552 8495.864045
0.527300 -369572.587114 8476.352338
0.527400 -368588.101148 8456.888920
0.527500 -367606.418125 8437.473665
0.527600 -366627.529544 8418.106443
0.527700 -365651.426930 8398.787128
0.527800 -364678.101836 8379.515592
0.527900 -363707.545844 8360.291708
0.528000 -362739.750560 8341.115349
0.528100 -361774.707618 8321.986390
0.528200 -360812.408681 8302.904704
0.528300 -359852.845436 8283.870167
0.528400 -358896.009598 8264.882653
0.528500 -357941.892909 8245.942037
0.528600 -356990.487137 8227.048195
0.528700 -356041.784075 8208.201002
0.528800 -355095.775546 8189.400336
0.528900 -354152.453397 8170.646073
0.529000 -353211.809500 8151.938090
0.529100 -352273.835756 8133.276264
0.529200 -351338.524089 8114.660473
0.529300 -350405.866451 8096.090594
0.529400 -349475.854820 8077.566508
0.529500 -348548.481198 8059.088091
0.529600 -347623.737615 8040.655223
0.529700 -346701.616124 8022.267785
0.529800 -345782.108804 8003.925654
0.529900 -344865.207762 7985.628712
0.530000 -343950.905127 7967.376840
0.530100 -343039.193056 7949.169916
0.530200 -342130.063729 7931.007824
0.530300 -341223.509351 7912.890444
0.530400 -340319.522154 7894.817659
0.530500 -339418.094394 7876.789350
0.530600 -338519.218351 7858.805399
0.530700 -337622.886330 7840.865690
0.530800 -336729.090661 7822.970106
0.530900 -335837.823698 7805.118530
0.531000 -334949.077820 7787.310846
0.531100 -334062.845432 7769.546938
0.531200 -333179.118959 7751.826690
0.531300 -332297.890855 7734.149988
0.531400 -331419.153594 7716.516716
0.531500 -330542.899678 7698.926761
0.531600 -329669.121629 7681.380006
0.531700 -328797.811996 7663.876340
0.531800 -327928.963350 7646.415647
0.531900 -327062.568288 7628.997815
0.532000 -326198.619427 7611.622731
0.532100 -325337.109411 7594.290282
0.532200 -324478.030905 7577.000356
0.532300 -323621.376600 7559.752840
0.532400 -322767.139208 7542.547624
0.532500 -321915.311465 7525.384595
0.532600 -321065.886130 7508.263643
0.532700 -320218.855987 7491.184657
0.532800 -319374.213840 7474.147526
0.532900 -318531.952517 7457.152141
0.533000 -317692.064870 7440.198391
0.533100 -316854.543774 7423.286167
0.533200 -316019.382124 7406.415359
0.533300 -315186.572841 7389.585860
0.533400 -314356.108865 7372.797560
0.533500 -313527.983162 7356.050350
0.533600 -312702.188718 7339.344124
0.533700 -311878.718542 7322.678773
0.533800 -311057.565667 7306.054189
0.533900 -310238.723144 7289.470267
0.534000 -309422.184051 7272.926898
0.534100 -308607.941485 7256.423978
0.534200 -307795.988565 7239.961398
0.534300 -306986.318433 7223.539054
0.534400 -306178.924253 7207.156840
0.534500 -305373.799210 7190.814651
0.534600 -304570.936509 7174.512381
0.534700 -303770.329381 7158.249926
0.534800 -302971.971074 7142.027182
0.534900 -302175.854860 7125.844044
0.535000 -301381.974032 7109.700409
0.535100 -300590.321903 7093.596173
0.535200 -299800.891810 7077.531233
0.535300 -299013.677108 7061.505486
0.535400 -298228.671174 7045.518829
0.535500 -297445.867408 7029.571159
0.535600 -296665.259229 7013.662376
0.535700 -295886.840077 6997.792377
0.535800 -295110.603413 6981.961060
0.535900 -294336.542719 6966.168325
0.536000 -293564.651498 6950.414069
0.536100 -292794.923272 6934.698194
0.536200 -292027.351586 6919.020598
0.536300 -291261.930004 6903.381181
0.536400 -290498.652110 6887.779843
0.536500 -289737.511508 6872.216485
0.536600 -288978.501825 6856.691008
0.536700 -288221.616705 6841.203313
0.536800 -287466.849813 6825.753300
0.536900 -286714.194836 6810.340872
0.537000 -285963.645478 6794.965930
0.537100 -285215.195465 6779.628376
0.537200 -284468.838542 6764.328113
0.537300 -283724.568475 6749.065044
0.537400 -282982.379047 6733.839071
0.537500 -282242.264063 6718.650098
0.537600 -281504.217347 6703.498028
0.537700 -280768.232743 6688.382764
0.537800 -280034.304113 6673.304212
0.537900 -279302.425340 6658.262275
0.538000 -278572.590325 6643.256857
0.538100 -277844.792990 6628.287864
0.538200 -277119.027274 6613.355200
0.538300 -276395.287136 6598.458772
0.538400 -275673.566555 6583.598484
0.538500 -274953.859529 6568.774242
0.538600 -274236.160072 6553.985953
0.538700 -273520.462221 6539.233523
0.538800 -272806.760030 6524.516859
0.538900 -272095.047571 6509.835867
0.539000 -271385.318935 6495.190454
0.539100 -270677.568232 6480.580529
0.539200 -269971.789592 6466.005999
0.539300 -269267.977160 6451.466771
0.539400 -268566.125103 6436.962755
0.539500 -267866.227605 6422.493858
0.539600 -267168.278867 6408.059989
0.539700 -266472.273110 6393.661057
0.539800 -265778.204573 6379.296972
0.539900 -265086.067513 6364.967642
0.540000 -264395.856204 6350.672978
0.540100 -263707.564939 6336.412890
0.540200 -263021.188029 6322.187287
0.540300 -262336.719803 6307.996081
0.540400 -261654.154608 6293.839181
0.540500 -260973.486807 6279.716500
0.540600 -260294.710784 6265.627947
0.540700 -259617.820936 6251.573435
0.540800 -258942.811683 6237.552876
0.540900 -258269.677458 6223.566181
0.541000 -257598.412715 6209.613262
0.541100 -256929.011922 6195.694033
0.541200 -256261.469568 6181.808405
0.541300 -255595.780155 6167.956291
0.541400 -254931.938207 6154.137606
0.541500 -254269.938262 6140.352261
0.541600 -253609.774876 6126.600171
0.541700 -252951.442623 6112.881250
0.541800 -252294.936091 6099.195412
0.541900 -251640.249889 6085.542571
0.542000 -250987.378641 6071.922642
0.542100 -250336.316986 6058.335539
0.542200 -249687.059584 6044.781178
0.542300 -249039.601108 6031.259474
0.542400 -248393.936250 6017.770343
0.542500 -247750.059716 6004.313700
0.542600 -247107.966233 5990.889462
0.542700 -246467.650539 5977.497544
0.542800 -245829.107393 5964.137863
0.542900 -245192.331569 5950.810336
0.543000 -244557.317856 5937.514879
0.543100 -243924.061061 5924.251411
0.543200 -243292.556006 5911.019848
0.543300 -242662.797531 5897.820108
0.543400 -242034.780489 5884.652108
0.543500 -241408.499753 5871.515768
0.543600 -240783.950209 5858.411004
0.543700 -240161.126761 5845.337737
0.543800 -239540.024327 5832.295883
0.543900 -238920.637843 5819.285364
0.544000 -238302.962258 5806.306096
0.544100 -237686.992540 5793.358001
0.544200 -237072.723670 5780.440998
0.544300 -236460.150647 5767.555006
0.544400 -235849.268484 5754.699946
0.544500 -235240.072211 5741.875738
0.544600 -234632.556870 5729.082302
0.544700 -234026.717524 5716.319560
0.544800 -233422.549246 5703.587431
0.544900 -232820.047129 5690.885839
0.545000 -232219.206277 5678.214703
0.545100 -231620.021813 5665.573945
0.545200 -231022.488872 5652.963488
0.545300 -230426.602608 5640.383253
0.545400 -229832.358186 5627.833163
0.545500 -229239.750788 5615.313139
0.545600 -228648.775611 5602.823106
0.545700 -228059.427868 5590.362985
0.545800 -227471.702785 5577.932700
0.545900 -226885.595603 5565.532174
0.546000 -226301.101580 5553.161331
0.546100 -225718.215986 5540.820094
0.546200 -225136.934107 5528.508387
0.546300 -224557.251244 5516.226135
0.546400 -223979.162712 5503.973262
0.546500 -223402.663841 5491.749692
0.546600 -222827.749975 5479.555351
0.546700 -222254.416472 5467.390162
0.546800 -221682.658708 5455.254053
0.546900 -221112.472068 5443.146947
0.547000 -220543.851954 5431.068771
0.547100 -219976.793784 5419.019449
0.547200 -219411.292987 5406.998910
0.547300 -218847.345007 5395.007078
0.547400 -218284.945305 5383.043879
0.547500 -217724.089352 5371.109242
0.547600 -217164.772636 5359.203092
0.547700 -216606.990658 5347.325356
0.547800 -216050.738932 5335.475962
0.547900 -215496.012987 5323.654837
0.548000 -214942.808366 5311.861909
0.548100 -214391.120626 5300.097105
0.548200 -213840.945336 5288.360354
0.548300 -213292.278081 5276.651584
0.548400 -212745.114459 5264.970723
0.548500 -212199.450080 5253.317700
0.548600 -211655.280570 5241.692443
0.548700 -211112.601568 5230.094882
0.548800 -210571.408724 5218.524946
0.548900 -210031.697705 5206.982564
0.549000 -209493.464190 5195.467667
0.549100 -208956.703871 5183.980182
0.549200 -208421.412453 5172.520041
0.549300 -207887.585656 5161.087174
0.549400 -207355.219211 5149.681511
0.549500 -206824.308864 5138.302983
0.549600 -206294.850373 5126.951520
0.549700 -205766.839510 5115.627053
0.549800 -205240.272060 5104.329513
0.549900 -204715.143819 5093.058832
0.550000 -204191.450600 5081.814942
0.550100 -203669.188226 5070.597773
0.550200 -203148.352532 5059.407258
0.550300 -202628.939370 5048.243328
0.550400 -202110.944600 5037.105917
0.550500 -201594.364097 5025.994955
0.550600 -201079.193751 5014.910377
0.550700 -200565.429460 5003.852115
0.550800 -200053.067138 4992.820101
0.550900 -199542.102711 4981.814269
0.551000 -199032.532117 4970.834552
0.551100 -198524.351307 4959.880884
0.551200 -198017.556243 4948.953198
0.551300 -197512.142903 4938.051428
0.551400 -197008.107273 4927.175509
0.551500 -196505.445354 4916.325374
0.551600 -196004.153160 4905.500958
0.551700 -195504.226715 4894.702196
0.551800 -195005.662056 4883.929022
0.551900 -194508.455234 4873.181371
0.552000 -194012.602309 4862.459179
0.552100 -193518.099356 4851.762380
0.552200 -193024.942461 4841.090910
0.552300 -192533.127721 4830.444705
0.552400 -192042.651247 4819.823701
0.552500 -191553.509160 4809.227833
0.552600 -191065.697595 4798.657038
0.552700 -190579.212696 4788.111252
0.552800 -190094.050623 4777.590412
0.552900 -189610.207543 4767.094454
0.553000 -189127.679639 4756.623315
0.553100 -188646.463103 4746.176933
0.553200 -188166.554140 4735.755243
0.553300 -187687.948966 4725.358185
0.553400 -187210.643810 4714.985695
0.553500 -186734.634910 4704.637711
0.553600 -186259.918517 4694.314171
0.553700 -185786.490895 4684.015013
0.553800 -185314.348317 4673.740175
0.553900 -184843.487069 4663.489596
0.554000 -184373.903448 4653.263213
0.554100 -183905.593761 4643.060967
0.554200 -183438.554329 4632.882795
0.554300 -182972.781482 4622.728638
0.554400 -182508.271562 4612.598433
